BODY Dose (GY),BODY Value (% of 336.438 cc),Bladder Dose (GY),Bladder Value (% of 20.820 cc),Femoral Head Lt Dose (GY),Femoral Head Lt Value (% of 11.549 cc),Femoral Head RT Dose (GY),Femoral Head RT Value (% of 11.715 cc),PTV Dose (GY),PTV Value (% of 12.563 cc),Rectum Dose (GY),Rectum Value (% of 12.453 cc),
0.000000,100.000000,0.000000,100.000000,0.000000,100.000000,0.000000,100.000000,0.000000,100.000000,0.000000,100.000000,
0.100000,100.000000,0.100000,100.000000,0.100000,100.000000,0.100000,100.000000,0.100000,100.000000,0.100000,100.000000,
0.300000,99.801458,0.300000,100.000000,0.300000,100.000000,0.300000,100.000000,0.300000,100.000000,0.300000,100.000000,
0.500000,94.250999,0.500000,100.000000,0.500000,100.000000,0.500000,100.000000,0.500000,100.000000,0.500000,100.000000,
0.700000,83.581414,0.700000,100.000000,0.700000,100.000000,0.700000,100.000000,0.700000,100.000000,0.700000,100.000000,
0.900000,74.108304,0.900000,100.000000,0.900000,100.000000,0.900000,100.000000,0.900000,100.000000,0.900000,100.000000,
1.100000,66.117291,1.100000,100.000000,1.100000,100.000000,1.100000,100.000000,1.100000,100.000000,1.100000,100.000000,
1.300000,60.213868,1.300000,100.000000,1.300000,100.000000,1.300000,100.000000,1.300000,100.000000,1.300000,100.000000,
1.500000,55.898779,1.500000,100.000000,1.500000,100.000000,1.500000,100.000000,1.500000,100.000000,1.500000,100.000000,
1.700000,52.504993,1.700000,100.000000,1.700000,100.000000,1.700000,100.000000,1.700000,100.000000,1.700000,100.000000,
1.900000,49.963427,1.900000,100.000000,1.900000,100.000000,1.900000,100.000000,1.900000,100.000000,1.900000,100.000000,
2.100000,47.994845,2.100000,100.000000,2.100000,100.000000,2.100000,100.000000,2.100000,100.000000,2.100000,100.000000,
2.300000,46.255573,2.300000,100.000000,2.300000,100.000000,2.300000,100.000000,2.300000,100.000000,2.300000,100.000000,
2.500000,44.792634,2.500000,100.000000,2.500000,100.000000,2.500000,100.000000,2.500000,100.000000,2.500000,100.000000,
2.700000,43.529979,2.700000,100.000000,2.700000,100.000000,2.700000,100.000000,2.700000,100.000000,2.700000,100.000000,
2.900000,42.268484,2.900000,100.000000,2.900000,100.000000,2.900000,100.000000,2.900000,100.000000,2.900000,100.000000,
3.100000,41.168958,3.100000,100.000000,3.100000,100.000000,3.100000,100.000000,3.100000,100.000000,3.100000,100.000000,
3.300000,40.144320,3.300000,100.000000,3.300000,100.000000,3.300000,100.000000,3.300000,100.000000,3.300000,100.000000,
3.500000,39.148128,3.500000,100.000000,3.500000,100.000000,3.500000,100.000000,3.500000,100.000000,3.500000,100.000000,
3.700000,38.270946,3.700000,100.000000,3.700000,100.000000,3.700000,100.000000,3.700000,100.000000,3.700000,100.000000,
3.900000,37.328163,3.900000,100.000000,3.900000,100.000000,3.900000,100.000000,3.900000,100.000000,3.900000,100.000000,
4.100000,36.412665,4.100000,100.000000,4.100000,100.000000,4.100000,100.000000,4.100000,100.000000,4.100000,100.000000,
4.300000,35.472785,4.300000,100.000000,4.300000,100.000000,4.300000,100.000000,4.300000,100.000000,4.300000,100.000000,
4.500000,34.585152,4.500000,100.000000,4.500000,100.000000,4.500000,100.000000,4.500000,100.000000,4.500000,100.000000,
4.700000,33.703906,4.700000,100.000000,4.700000,100.000000,4.700000,100.000000,4.700000,100.000000,4.700000,100.000000,
4.900000,32.878390,4.900000,100.000000,4.900000,100.000000,4.900000,100.000000,4.900000,100.000000,4.900000,100.000000,
5.100000,32.061583,5.100000,100.000000,5.100000,100.000000,5.100000,100.000000,5.100000,100.000000,5.100000,100.000000,
5.300000,31.214588,5.300000,100.000000,5.300000,100.000000,5.300000,100.000000,5.300000,100.000000,5.300000,100.000000,
5.500000,30.255550,5.500000,100.000000,5.500000,100.000000,5.500000,100.000000,5.500000,100.000000,5.500000,100.000000,
5.700000,29.328441,5.700000,100.000000,5.700000,100.000000,5.700000,100.000000,5.700000,100.000000,5.700000,100.000000,
5.900000,28.341538,5.900000,100.000000,5.900000,100.000000,5.900000,100.000000,5.900000,100.000000,5.900000,100.000000,
6.100000,27.385403,6.100000,100.000000,6.100000,100.000000,6.100000,100.000000,6.100000,100.000000,6.100000,100.000000,
6.300000,26.391534,6.300000,100.000000,6.300000,100.000000,6.300000,100.000000,6.300000,100.000000,6.300000,100.000000,
6.500000,25.395922,6.500000,100.000000,6.500000,100.000000,6.500000,100.000000,6.500000,100.000000,6.500000,100.000000,
6.700000,24.396828,6.700000,100.000000,6.700000,100.000000,6.700000,100.000000,6.700000,100.000000,6.700000,100.000000,
6.900000,23.405281,6.900000,100.000000,6.900000,100.000000,6.900000,100.000000,6.900000,100.000000,6.900000,100.000000,
7.100000,22.326073,7.100000,100.000000,7.100000,100.000000,7.100000,100.000000,7.100000,100.000000,7.100000,100.000000,
7.300000,21.277633,7.300000,100.000000,7.300000,100.000000,7.300000,100.000000,7.300000,100.000000,7.300000,100.000000,
7.500000,20.077675,7.500000,100.000000,7.500000,100.000000,7.500000,100.000000,7.500000,100.000000,7.500000,100.000000,
7.700000,18.877136,7.700000,100.000000,7.700000,100.000000,7.700000,100.000000,7.700000,100.000000,7.700000,100.000000,
7.900000,17.743359,7.900000,100.000000,7.900000,100.000000,7.900000,100.000000,7.900000,100.000000,7.900000,100.000000,
8.100000,16.549786,8.100000,100.000000,8.100000,100.000000,8.100000,100.000000,8.100000,100.000000,8.100000,100.000000,
8.300000,15.452582,8.300000,100.000000,8.300000,100.000000,8.300000,100.000000,8.300000,100.000000,8.300000,99.639272,
8.500000,14.211987,8.500000,100.000000,8.500000,100.000000,8.500000,100.000000,8.500000,100.000000,8.500000,99.074655,
8.700000,13.005643,8.700000,100.000000,8.700000,100.000000,8.700000,100.000000,8.700000,100.000000,8.700000,98.462986,
8.900000,11.925274,8.900000,100.000000,8.900000,100.000000,8.900000,100.000000,8.900000,100.000000,8.900000,98.196361,
9.100000,10.902958,9.100000,100.000000,9.100000,100.000000,9.100000,100.000000,9.100000,100.000000,9.100000,98.196361,
9.300000,9.942179,9.300000,100.000000,9.300000,100.000000,9.300000,100.000000,9.300000,100.000000,9.300000,98.196361,
9.500000,8.984302,9.500000,100.000000,9.500000,100.000000,9.500000,100.000000,9.500000,100.000000,9.500000,98.196361,
9.700000,8.116408,9.700000,100.000000,9.700000,100.000000,9.700000,100.000000,9.700000,100.000000,9.700000,98.196361,
9.900000,7.246772,9.900000,100.000000,9.900000,100.000000,9.900000,100.000000,9.900000,100.000000,9.900000,98.196361,
10.100000,6.457830,10.100000,100.000000,10.100000,100.000000,10.100000,100.000000,10.100000,100.000000,10.100000,98.196361,
10.300000,5.711267,10.300000,100.000000,10.300000,100.000000,10.300000,100.000000,10.300000,100.000000,10.300000,98.196361,
10.500000,5.037851,10.500000,100.000000,10.500000,100.000000,10.500000,100.000000,10.500000,100.000000,10.500000,98.196361,
10.700000,4.392880,10.700000,100.000000,10.700000,100.000000,10.700000,100.000000,10.700000,100.000000,10.700000,98.196361,
10.900000,3.798416,10.900000,100.000000,10.900000,100.000000,10.900000,100.000000,10.900000,100.000000,10.900000,98.196361,
11.100000,3.232979,11.100000,100.000000,11.100000,100.000000,11.100000,100.000000,11.100000,100.000000,11.100000,97.976788,
11.300000,2.694246,11.300000,100.000000,11.300000,100.000000,11.300000,100.000000,11.300000,100.000000,11.300000,97.772898,
11.500000,2.259428,11.500000,100.000000,11.500000,100.000000,11.500000,100.000000,11.500000,100.000000,11.500000,97.459222,
11.700000,1.854798,11.700000,100.000000,11.700000,100.000000,11.700000,100.000000,11.700000,100.000000,11.700000,97.208281,
11.900000,1.501834,11.900000,100.000000,11.900000,100.000000,11.900000,100.000000,11.900000,100.000000,11.900000,97.051443,
12.100000,1.206344,12.100000,100.000000,12.100000,100.000000,12.100000,100.000000,12.100000,100.000000,12.100000,97.020075,
12.300000,0.956135,12.300000,100.000000,12.300000,100.000000,12.300000,100.000000,12.300000,100.000000,12.300000,97.020075,
12.500000,0.782556,12.500000,100.000000,12.500000,100.000000,12.500000,100.000000,12.500000,100.000000,12.500000,97.020075,
12.700000,0.631038,12.700000,100.000000,12.700000,100.000000,12.700000,100.000000,12.700000,100.000000,12.700000,97.020075,
12.900000,0.514351,12.900000,100.000000,12.900000,100.000000,12.900000,100.000000,12.900000,100.000000,12.900000,97.020075,
13.100000,0.415080,13.100000,100.000000,13.100000,100.000000,13.100000,100.000000,13.100000,100.000000,13.100000,97.020075,
13.300000,0.339611,13.300000,100.000000,13.300000,99.949264,13.300000,100.000000,13.300000,100.000000,13.300000,97.020075,
13.500000,0.272269,13.500000,100.000000,13.500000,99.864705,13.500000,100.000000,13.500000,100.000000,13.500000,96.941656,
13.700000,0.207830,13.700000,100.000000,13.700000,99.797057,13.700000,100.000000,13.700000,100.000000,13.700000,96.941656,
13.900000,0.165451,13.900000,100.000000,13.900000,99.678674,13.900000,100.000000,13.900000,100.000000,13.900000,96.894605,
14.100000,0.128878,14.100000,100.000000,14.100000,99.611027,14.100000,100.000000,14.100000,100.000000,14.100000,96.847553,
14.300000,0.098690,14.300000,100.000000,14.300000,99.509555,14.300000,100.000000,14.300000,100.000000,14.300000,96.847553,
14.500000,0.076050,14.500000,100.000000,14.500000,99.340436,14.500000,100.000000,14.500000,100.000000,14.500000,96.816186,
14.700000,0.061536,14.700000,100.000000,14.700000,99.154406,14.700000,100.000000,14.700000,100.000000,14.700000,96.784818,
14.900000,0.045862,14.900000,100.000000,14.900000,98.866903,14.900000,100.000000,14.900000,100.000000,14.900000,96.753450,
15.100000,0.031349,15.100000,100.000000,15.100000,98.596313,15.100000,100.000000,15.100000,100.000000,15.100000,96.722083,
15.300000,0.021480,15.300000,100.000000,15.300000,98.325723,15.300000,100.000000,15.300000,100.000000,15.300000,96.596612,
15.500000,0.014513,15.500000,100.000000,15.500000,98.105868,15.500000,100.000000,15.500000,100.000000,15.500000,96.392723,
15.700000,0.009289,15.700000,100.000000,15.700000,97.936750,15.700000,100.000000,15.700000,100.000000,15.700000,96.188833,
15.900000,0.007547,15.900000,100.000000,15.900000,97.818366,15.900000,100.000000,15.900000,100.000000,15.900000,96.110414,
16.100000,0.005805,16.100000,100.000000,16.100000,97.699983,16.100000,100.000000,16.100000,100.000000,16.100000,96.031995,
16.300000,0.003483,16.300000,100.000000,16.300000,97.649247,16.300000,100.000000,16.300000,100.000000,16.300000,96.031995,
16.500000,0.003483,16.500000,100.000000,16.500000,97.564688,16.500000,100.000000,16.500000,100.000000,16.500000,96.031995,
16.700000,0.002903,16.700000,100.000000,16.700000,97.513952,16.700000,100.000000,16.700000,100.000000,16.700000,96.031995,
16.900000,0.001742,16.900000,100.000000,16.900000,97.446305,16.900000,100.000000,16.900000,100.000000,16.900000,95.969260,
17.100000,0.001742,17.100000,100.000000,17.100000,97.277186,17.100000,100.000000,17.100000,100.000000,17.100000,95.953576,
17.300000,0.000000,17.300000,100.000000,17.300000,97.040419,17.300000,100.000000,17.300000,100.000000,17.300000,95.953576,
17.500000,0.000000,17.500000,100.000000,17.500000,96.837477,17.500000,100.000000,17.500000,100.000000,17.500000,95.953576,
17.700000,0.000000,17.700000,100.000000,17.700000,96.634534,17.700000,100.000000,17.700000,100.000000,17.700000,95.953576,
17.900000,0.000000,17.900000,100.000000,17.900000,96.279384,17.900000,100.000000,17.900000,100.000000,17.900000,95.953576,
18.100000,0.000000,18.100000,100.000000,18.100000,96.042618,18.100000,100.000000,18.100000,100.000000,18.100000,95.890841,
18.300000,0.000000,18.300000,100.000000,18.300000,95.924235,18.300000,100.000000,18.300000,100.000000,18.300000,95.890841,
18.500000,0.000000,18.500000,100.000000,18.500000,95.772028,18.500000,100.000000,18.500000,100.000000,18.500000,95.890841,
18.700000,0.000000,18.700000,100.000000,18.700000,95.670556,18.700000,100.000000,18.700000,100.000000,18.700000,95.765370,
18.900000,0.000000,18.900000,100.000000,18.900000,95.535261,18.900000,100.000000,18.900000,100.000000,18.900000,95.734003,
19.100000,0.000000,19.100000,100.000000,19.100000,95.484526,19.100000,100.000000,19.100000,100.000000,19.100000,95.734003,
19.300000,0.000000,19.300000,100.000000,19.300000,95.349231,19.300000,100.000000,19.300000,100.000000,19.300000,95.734003,
19.500000,0.000000,19.500000,100.000000,19.500000,95.095552,19.500000,100.000000,19.500000,100.000000,19.500000,95.686951,
19.700000,0.000000,19.700000,100.000000,19.700000,94.875698,19.700000,100.000000,19.700000,100.000000,19.700000,95.686951,
19.900000,0.000000,19.900000,100.000000,19.900000,94.520548,19.900000,100.000000,19.900000,100.000000,19.900000,95.639900,
20.100000,0.000000,20.100000,100.000000,20.100000,94.165398,20.100000,100.000000,20.100000,100.000000,20.100000,95.577164,
20.300000,0.000000,20.300000,100.000000,20.300000,93.996279,20.300000,100.000000,20.300000,100.000000,20.300000,95.483061,
20.500000,0.000000,20.500000,100.000000,20.500000,93.827160,20.500000,100.000000,20.500000,100.000000,20.500000,95.436010,
20.700000,0.000000,20.700000,100.000000,20.700000,93.658042,20.700000,100.000000,20.700000,100.000000,20.700000,95.341907,
20.900000,0.000000,20.900000,100.000000,20.900000,93.539658,20.900000,100.000000,20.900000,100.000000,20.900000,95.247804,
21.100000,0.000000,21.100000,100.000000,21.100000,93.319804,21.100000,100.000000,21.100000,100.000000,21.100000,95.059598,
21.300000,0.000000,21.300000,100.000000,21.300000,92.981566,21.300000,100.000000,21.300000,100.000000,21.300000,95.059598,
21.500000,0.000000,21.500000,100.000000,21.500000,92.288179,21.500000,100.000000,21.500000,100.000000,21.500000,94.949812,
21.700000,0.000000,21.700000,100.000000,21.700000,92.000676,21.700000,100.000000,21.700000,100.000000,21.700000,94.887077,
21.900000,0.000000,21.900000,100.000000,21.900000,91.797734,21.900000,100.000000,21.900000,100.000000,21.900000,94.871393,
22.100000,0.000000,22.100000,100.000000,22.100000,91.560967,22.100000,100.000000,22.100000,100.000000,22.100000,94.871393,
22.300000,0.000000,22.300000,100.000000,22.300000,91.155082,22.300000,100.000000,22.300000,100.000000,22.300000,94.871393,
22.500000,0.000000,22.500000,100.000000,22.500000,90.630813,22.500000,100.000000,22.500000,100.000000,22.500000,94.840025,
22.700000,0.000000,22.700000,100.000000,22.700000,90.224928,22.700000,100.000000,22.700000,100.000000,22.700000,94.808657,
22.900000,0.000000,22.900000,100.000000,22.900000,89.480805,22.900000,100.000000,22.900000,100.000000,22.900000,94.808657,
23.100000,0.000000,23.100000,100.000000,23.100000,88.702858,23.100000,100.000000,23.100000,100.000000,23.100000,94.792974,
23.300000,0.000000,23.300000,100.000000,23.300000,87.823440,23.300000,100.000000,23.300000,100.000000,23.300000,94.777290,
23.500000,0.000000,23.500000,100.000000,23.500000,86.707255,23.500000,100.000000,23.500000,100.000000,23.500000,94.745922,
23.700000,0.000000,23.700000,100.000000,23.700000,84.965331,23.700000,100.000000,23.700000,100.000000,23.700000,94.714555,
23.900000,0.000000,23.900000,100.000000,23.900000,82.546930,23.900000,100.000000,23.900000,100.000000,23.900000,94.698871,
24.100000,0.000000,24.100000,100.000000,24.100000,79.621174,24.100000,100.000000,24.100000,100.000000,24.100000,94.683187,
24.300000,0.000000,24.300000,100.000000,24.300000,75.748351,24.300000,99.633211,24.300000,100.000000,24.300000,94.667503,
24.500000,0.000000,24.500000,100.000000,24.500000,70.860815,24.500000,96.265422,24.500000,100.000000,24.500000,94.651819,
24.700000,0.000000,24.700000,100.000000,24.700000,65.651953,24.700000,90.813605,24.700000,100.000000,24.700000,94.494981,
24.900000,0.000000,24.900000,100.000000,24.900000,60.087942,24.900000,84.828276,24.900000,100.000000,24.900000,94.463614,
25.100000,0.000000,25.100000,100.000000,25.100000,54.134957,25.100000,78.176059,25.100000,100.000000,25.100000,94.432246,
25.300000,0.000000,25.300000,100.000000,25.300000,47.370201,25.300000,71.873958,25.300000,100.000000,25.300000,94.385194,
25.500000,0.000000,25.500000,100.000000,25.500000,37.679689,25.500000,64.854952,25.500000,100.000000,25.500000,94.291092,
25.700000,0.000000,25.700000,100.000000,25.700000,23.169288,25.700000,57.035679,25.700000,100.000000,25.700000,94.228356,
25.900000,0.000000,25.900000,100.000000,25.900000,21.122949,25.900000,45.531844,25.900000,100.000000,25.900000,94.181305,
26.100000,0.000000,26.100000,100.000000,26.100000,19.482496,26.100000,29.659887,26.100000,100.000000,26.100000,94.134253,
26.300000,0.000000,26.300000,100.000000,26.300000,18.298664,26.300000,25.391797,26.300000,100.000000,26.300000,94.102886,
26.500000,0.000000,26.500000,100.000000,26.500000,17.385422,26.500000,23.874625,26.500000,100.000000,26.500000,94.040151,
26.700000,0.000000,26.700000,100.000000,26.700000,16.539827,26.700000,22.707569,26.700000,100.000000,26.700000,93.946048,
26.900000,0.000000,26.900000,100.000000,26.900000,15.761881,26.900000,21.507169,26.900000,100.000000,26.900000,93.836261,
27.100000,0.000000,27.100000,100.000000,27.100000,14.983934,27.100000,20.773591,27.100000,100.000000,27.100000,92.816813,
27.300000,0.000000,27.300000,100.000000,27.300000,14.290546,27.300000,19.856619,27.300000,100.000000,27.300000,91.013174,
27.500000,0.000000,27.500000,100.000000,27.500000,13.715542,27.500000,18.772924,27.500000,100.000000,27.500000,89.303639,
27.700000,0.000000,27.700000,100.000000,27.700000,13.444952,27.700000,18.272758,27.700000,100.000000,27.700000,87.405897,
27.900000,0.000000,27.900000,100.000000,27.900000,12.751564,27.900000,17.705902,27.900000,100.000000,27.900000,85.586575,
28.100000,0.000000,28.100000,100.000000,28.100000,12.430238,28.100000,17.089030,28.100000,100.000000,28.100000,83.924090,
28.300000,0.000000,28.300000,100.000000,28.300000,11.905970,28.300000,16.655552,28.300000,100.000000,28.300000,81.744040,
28.500000,0.000000,28.500000,100.000000,28.500000,11.601556,28.500000,16.288763,28.500000,100.000000,28.500000,80.159975,
28.700000,0.000000,28.700000,100.000000,28.700000,11.077287,28.700000,15.821941,28.700000,100.000000,28.700000,79.109159,
28.900000,0.000000,28.900000,100.000000,28.900000,10.722138,28.900000,15.271757,28.900000,100.000000,28.900000,78.011292,
29.100000,0.000000,29.100000,100.000000,29.100000,10.248605,29.100000,14.804935,29.100000,100.000000,29.100000,76.678168,
29.300000,0.000000,29.300000,100.000000,29.300000,9.944191,29.300000,14.538179,29.300000,100.000000,29.300000,75.674404,
29.500000,0.000000,29.500000,100.000000,29.500000,9.656689,29.500000,14.038013,29.500000,100.000000,29.500000,74.984316,
29.700000,0.000000,29.700000,99.981238,29.700000,9.453746,29.700000,13.687896,29.700000,100.000000,29.700000,74.011920,
29.900000,0.000000,29.900000,99.774859,29.900000,9.047861,29.900000,13.154385,29.900000,100.000000,29.900000,73.086575,
30.100000,0.000000,30.100000,99.530957,30.100000,8.641975,30.100000,12.837613,30.100000,100.000000,30.100000,72.427854,
30.300000,0.000000,30.300000,99.296435,30.300000,8.455945,30.300000,12.637546,30.300000,100.000000,30.300000,71.502509,
30.500000,0.000000,30.500000,98.874296,30.500000,8.303738,30.500000,12.504168,30.500000,100.000000,30.500000,70.828105,
30.700000,0.000000,30.700000,98.470919,30.700000,8.033147,30.700000,12.454151,30.700000,100.000000,30.700000,70.075282,
30.900000,0.000000,30.900000,97.570356,30.900000,7.847117,30.900000,12.154051,30.900000,100.000000,30.900000,69.589084,
31.100000,0.000000,31.100000,96.238274,31.100000,7.508879,31.100000,11.587196,31.100000,100.000000,31.100000,69.149937,
31.300000,0.000000,31.300000,96.238274,31.300000,7.407407,31.300000,10.803601,31.300000,100.000000,31.300000,68.601004,
31.500000,0.000000,31.500000,96.238274,31.500000,7.052258,31.500000,10.453484,31.500000,100.000000,31.500000,68.114806,
31.700000,0.000000,31.700000,96.238274,31.700000,6.747844,31.700000,10.220073,31.700000,100.000000,31.700000,67.659975,
31.900000,0.000000,31.900000,96.238274,31.900000,6.189751,31.900000,9.719907,31.900000,100.000000,31.900000,67.205144,
