BODY Dose (GY),BODY Value (% of 10667.200 cc),Bladder Dose (GY),Bladder Value (% of 116.779 cc),Femoral Head Lt Dose (GY),Femoral Head Lt Value (% of 49.154 cc),Femoral Head RT Dose (GY),Femoral Head RT Value (% of 50.027 cc),PTV Dose (GY),PTV Value (% of 48.613 cc),Rectum Dose (GY),Rectum Value (% of 30.410 cc),
0.000000,100.000000,0.000000,100.000000,0.000000,100.000000,0.000000,100.000000,0.000000,100.000000,0.000000,100.000000,
0.100000,100.000000,0.100000,100.000000,0.100000,100.000000,0.100000,100.000000,0.100000,100.000000,0.100000,100.000000,
0.300000,100.000000,0.300000,100.000000,0.300000,100.000000,0.300000,100.000000,0.300000,100.000000,0.300000,100.000000,
0.500000,99.827028,0.500000,100.000000,0.500000,100.000000,0.500000,100.000000,0.500000,100.000000,0.500000,100.000000,
0.700000,97.679393,0.700000,100.000000,0.700000,100.000000,0.700000,100.000000,0.700000,100.000000,0.700000,100.000000,
0.900000,93.328790,0.900000,100.000000,0.900000,100.000000,0.900000,100.000000,0.900000,100.000000,0.900000,100.000000,
1.100000,88.272092,1.100000,100.000000,1.100000,100.000000,1.100000,100.000000,1.100000,100.000000,1.100000,100.000000,
1.300000,83.167808,1.300000,100.000000,1.300000,100.000000,1.300000,100.000000,1.300000,100.000000,1.300000,100.000000,
1.500000,78.757442,1.500000,100.000000,1.500000,100.000000,1.500000,100.000000,1.500000,100.000000,1.500000,100.000000,
1.700000,75.346804,1.700000,100.000000,1.700000,100.000000,1.700000,100.000000,1.700000,100.000000,1.700000,100.000000,
1.900000,72.674468,1.900000,100.000000,1.900000,100.000000,1.900000,100.000000,1.900000,100.000000,1.900000,100.000000,
2.100000,70.552264,2.100000,100.000000,2.100000,100.000000,2.100000,100.000000,2.100000,100.000000,2.100000,100.000000,
2.300000,68.851697,2.300000,100.000000,2.300000,100.000000,2.300000,100.000000,2.300000,100.000000,2.300000,100.000000,
2.500000,67.449247,2.500000,100.000000,2.500000,100.000000,2.500000,100.000000,2.500000,100.000000,2.500000,100.000000,
2.700000,66.286911,2.700000,100.000000,2.700000,100.000000,2.700000,100.000000,2.700000,100.000000,2.700000,100.000000,
2.900000,65.288044,2.900000,100.000000,2.900000,100.000000,2.900000,100.000000,2.900000,100.000000,2.900000,100.000000,
3.100000,64.434392,3.100000,100.000000,3.100000,100.000000,3.100000,100.000000,3.100000,100.000000,3.100000,100.000000,
3.300000,63.691805,3.300000,100.000000,3.300000,100.000000,3.300000,100.000000,3.300000,100.000000,3.300000,100.000000,
3.500000,63.042269,3.500000,100.000000,3.500000,100.000000,3.500000,100.000000,3.500000,100.000000,3.500000,100.000000,
3.700000,62.417908,3.700000,100.000000,3.700000,100.000000,3.700000,100.000000,3.700000,100.000000,3.700000,100.000000,
3.900000,61.864004,3.900000,100.000000,3.900000,100.000000,3.900000,100.000000,3.900000,100.000000,3.900000,100.000000,
4.100000,61.350032,4.100000,100.000000,4.100000,100.000000,4.100000,100.000000,4.100000,100.000000,4.100000,100.000000,
4.300000,60.877697,4.300000,100.000000,4.300000,100.000000,4.300000,100.000000,4.300000,100.000000,4.300000,100.000000,
4.500000,60.398075,4.500000,100.000000,4.500000,100.000000,4.500000,100.000000,4.500000,100.000000,4.500000,100.000000,
4.700000,59.946173,4.700000,100.000000,4.700000,100.000000,4.700000,100.000000,4.700000,100.000000,4.700000,100.000000,
4.900000,59.461094,4.900000,100.000000,4.900000,100.000000,4.900000,100.000000,4.900000,100.000000,4.900000,100.000000,
5.100000,59.018073,5.100000,100.000000,5.100000,100.000000,5.100000,100.000000,5.100000,100.000000,5.100000,100.000000,
5.300000,58.583200,5.300000,100.000000,5.300000,100.000000,5.300000,100.000000,5.300000,100.000000,5.300000,100.000000,
5.500000,58.114069,5.500000,100.000000,5.500000,100.000000,5.500000,100.000000,5.500000,100.000000,5.500000,100.000000,
5.700000,57.619707,5.700000,100.000000,5.700000,100.000000,5.700000,100.000000,5.700000,100.000000,5.700000,100.000000,
5.900000,57.122361,5.900000,100.000000,5.900000,100.000000,5.900000,100.000000,5.900000,100.000000,5.900000,100.000000,
6.100000,56.670258,6.100000,100.000000,6.100000,100.000000,6.100000,100.000000,6.100000,100.000000,6.100000,100.000000,
6.300000,56.242543,6.300000,100.000000,6.300000,100.000000,6.300000,100.000000,6.300000,100.000000,6.300000,100.000000,
6.500000,55.816202,6.500000,100.000000,6.500000,100.000000,6.500000,100.000000,6.500000,100.000000,6.500000,100.000000,
6.700000,55.369391,6.700000,100.000000,6.700000,100.000000,6.700000,100.000000,6.700000,100.000000,6.700000,100.000000,
6.900000,54.920236,6.900000,100.000000,6.900000,100.000000,6.900000,100.000000,6.900000,100.000000,6.900000,100.000000,
7.100000,54.500449,7.100000,100.000000,7.100000,100.000000,7.100000,100.000000,7.100000,100.000000,7.100000,100.000000,
7.300000,54.096318,7.300000,100.000000,7.300000,100.000000,7.300000,100.000000,7.300000,100.000000,7.300000,100.000000,
7.500000,53.701597,7.500000,100.000000,7.500000,100.000000,7.500000,100.000000,7.500000,100.000000,7.500000,100.000000,
7.700000,53.312315,7.700000,100.000000,7.700000,100.000000,7.700000,100.000000,7.700000,100.000000,7.700000,100.000000,
7.900000,52.936728,7.900000,100.000000,7.900000,100.000000,7.900000,100.000000,7.900000,100.000000,7.900000,100.000000,
8.100000,52.574123,8.100000,100.000000,8.100000,100.000000,8.100000,100.000000,8.100000,100.000000,8.100000,100.000000,
8.300000,52.222632,8.300000,100.000000,8.300000,100.000000,8.300000,100.000000,8.300000,100.000000,8.300000,100.000000,
8.500000,51.873686,8.500000,100.000000,8.500000,100.000000,8.500000,100.000000,8.500000,100.000000,8.500000,100.000000,
8.700000,51.537447,8.700000,100.000000,8.700000,100.000000,8.700000,100.000000,8.700000,100.000000,8.700000,100.000000,
8.900000,51.222538,8.900000,100.000000,8.900000,100.000000,8.900000,100.000000,8.900000,100.000000,8.900000,100.000000,
9.100000,50.929968,9.100000,100.000000,9.100000,100.000000,9.100000,100.000000,9.100000,100.000000,9.100000,100.000000,
9.300000,50.650250,9.300000,100.000000,9.300000,100.000000,9.300000,100.000000,9.300000,100.000000,9.300000,100.000000,
9.500000,50.383661,9.500000,100.000000,9.500000,100.000000,9.500000,100.000000,9.500000,100.000000,9.500000,100.000000,
9.700000,50.130383,9.700000,100.000000,9.700000,100.000000,9.700000,100.000000,9.700000,100.000000,9.700000,100.000000,
9.900000,49.888018,9.900000,100.000000,9.900000,100.000000,9.900000,100.000000,9.900000,100.000000,9.900000,100.000000,
10.100000,49.651438,10.100000,100.000000,10.100000,100.000000,10.100000,100.000000,10.100000,100.000000,10.100000,100.000000,
10.300000,49.421926,10.300000,100.000000,10.300000,100.000000,10.300000,100.000000,10.300000,100.000000,10.300000,100.000000,
10.500000,49.194795,10.500000,100.000000,10.500000,100.000000,10.500000,100.000000,10.500000,100.000000,10.500000,100.000000,
10.700000,48.969402,10.700000,100.000000,10.700000,100.000000,10.700000,100.000000,10.700000,100.000000,10.700000,100.000000,
10.900000,48.746097,10.900000,100.000000,10.900000,100.000000,10.900000,100.000000,10.900000,100.000000,10.900000,100.000000,
11.100000,48.538063,11.100000,100.000000,11.100000,100.000000,11.100000,100.000000,11.100000,100.000000,11.100000,100.000000,
11.300000,48.333763,11.300000,100.000000,11.300000,100.000000,11.300000,100.000000,11.300000,100.000000,11.300000,99.865125,
11.500000,48.138783,11.500000,100.000000,11.500000,100.000000,11.500000,100.000000,11.500000,100.000000,11.500000,99.659602,
11.700000,47.941020,11.700000,100.000000,11.700000,100.000000,11.700000,100.000000,11.700000,100.000000,11.700000,99.511882,
11.900000,47.749446,11.900000,100.000000,11.900000,100.000000,11.900000,100.000000,11.900000,100.000000,11.900000,99.460501,
12.100000,47.558347,12.100000,100.000000,12.100000,100.000000,12.100000,100.000000,12.100000,100.000000,12.100000,99.460501,
12.300000,47.367066,12.300000,100.000000,12.300000,100.000000,12.300000,100.000000,12.300000,100.000000,12.300000,99.460501,
12.500000,47.181827,12.500000,100.000000,12.500000,100.000000,12.500000,100.000000,12.500000,100.000000,12.500000,99.460501,
12.700000,47.000817,12.700000,100.000000,12.700000,100.000000,12.700000,100.000000,12.700000,100.000000,12.700000,99.460501,
12.900000,46.821840,12.900000,100.000000,12.900000,100.000000,12.900000,100.000000,12.900000,100.000000,12.900000,99.460501,
13.100000,46.643211,13.100000,100.000000,13.100000,100.000000,13.100000,100.000000,13.100000,100.000000,13.100000,99.460501,
13.300000,46.466046,13.300000,100.000000,13.300000,100.000000,13.300000,100.000000,13.300000,100.000000,13.300000,99.460501,
13.500000,46.289211,13.500000,100.000000,13.500000,100.000000,13.500000,100.000000,13.500000,100.000000,13.500000,99.460501,
13.700000,46.114555,13.700000,100.000000,13.700000,100.000000,13.700000,100.000000,13.700000,100.000000,13.700000,99.460501,
13.900000,45.935633,13.900000,100.000000,13.900000,100.000000,13.900000,100.000000,13.900000,100.000000,13.900000,99.441233,
14.100000,45.756253,14.100000,100.000000,14.100000,100.000000,14.100000,100.000000,14.100000,100.000000,14.100000,99.441233,
14.300000,45.574144,14.300000,100.000000,14.300000,100.000000,14.300000,100.000000,14.300000,100.000000,14.300000,99.428388,
14.500000,45.387312,14.500000,100.000000,14.500000,100.000000,14.500000,100.000000,14.500000,100.000000,14.500000,99.402697,
14.700000,45.197221,14.700000,100.000000,14.700000,100.000000,14.700000,100.000000,14.700000,100.000000,14.700000,99.377007,
14.900000,45.005372,14.900000,100.000000,14.900000,100.000000,14.900000,100.000000,14.900000,100.000000,14.900000,99.351317,
15.100000,44.818558,15.100000,100.000000,15.100000,100.000000,15.100000,100.000000,15.100000,100.000000,15.100000,99.299936,
15.300000,44.634143,15.300000,100.000000,15.300000,100.000000,15.300000,100.000000,15.300000,100.000000,15.300000,99.126525,
15.500000,44.454690,15.500000,100.000000,15.500000,100.000000,15.500000,100.000000,15.500000,100.000000,15.500000,98.869621,
15.700000,44.274596,15.700000,100.000000,15.700000,99.988080,15.700000,100.000000,15.700000,100.000000,15.700000,98.670520,
15.900000,44.092268,15.900000,100.000000,15.900000,99.968212,15.900000,100.000000,15.900000,100.000000,15.900000,98.670520,
16.100000,43.912668,16.100000,100.000000,16.100000,99.956292,16.100000,100.000000,16.100000,100.000000,16.100000,98.670520,
16.300000,43.731292,16.300000,100.000000,16.300000,99.932451,16.300000,100.000000,16.300000,100.000000,16.300000,98.670520,
16.500000,43.550649,16.500000,100.000000,16.500000,99.920531,16.500000,100.000000,16.500000,100.000000,16.500000,98.670520,
16.700000,43.369895,16.700000,100.000000,16.700000,99.900664,16.700000,100.000000,16.700000,100.000000,16.700000,98.670520,
16.900000,43.188629,16.900000,100.000000,16.900000,99.888743,16.900000,100.000000,16.900000,100.000000,16.900000,98.638407,
17.100000,43.005075,17.100000,100.000000,17.100000,99.876823,17.100000,100.000000,17.100000,100.000000,17.100000,98.638407,
17.300000,42.819213,17.300000,100.000000,17.300000,99.845035,17.300000,100.000000,17.300000,100.000000,17.300000,98.638407,
17.500000,42.632692,17.500000,100.000000,17.500000,99.797354,17.500000,100.000000,17.500000,100.000000,17.500000,98.638407,
17.700000,42.442052,17.700000,100.000000,17.700000,99.741725,17.700000,100.000000,17.700000,100.000000,17.700000,98.638407,
17.900000,42.247420,17.900000,100.000000,17.900000,99.701991,17.900000,100.000000,17.900000,100.000000,17.900000,98.631985,
18.100000,42.055992,18.100000,100.000000,18.100000,99.658283,18.100000,100.000000,18.100000,100.000000,18.100000,98.587026,
18.300000,41.862733,18.300000,100.000000,18.300000,99.614575,18.300000,100.000000,18.300000,100.000000,18.300000,98.587026,
18.500000,41.662736,18.500000,100.000000,18.500000,99.578814,18.500000,100.000000,18.500000,100.000000,18.500000,98.587026,
18.700000,41.458272,18.700000,100.000000,18.700000,99.539079,18.700000,100.000000,18.700000,100.000000,18.700000,98.587026,
18.900000,41.252306,18.900000,100.000000,18.900000,99.507291,18.900000,100.000000,18.900000,100.000000,18.900000,98.522800,
19.100000,41.044766,19.100000,100.000000,19.100000,99.471530,19.100000,100.000000,19.100000,100.000000,19.100000,98.522800,
19.300000,40.831842,19.300000,100.000000,19.300000,99.447689,19.300000,100.000000,19.300000,100.000000,19.300000,98.522800,
19.500000,40.613078,19.500000,100.000000,19.500000,99.384114,19.500000,100.000000,19.500000,100.000000,19.500000,98.452152,
19.700000,40.387539,19.700000,100.000000,19.700000,99.256963,19.700000,100.000000,19.700000,100.000000,19.700000,98.452152,
19.900000,40.157533,19.900000,100.000000,19.900000,99.113919,19.900000,100.000000,19.900000,100.000000,19.900000,98.375080,
20.100000,39.924286,20.100000,100.000000,20.100000,99.018556,20.100000,100.000000,20.100000,100.000000,20.100000,98.304432,
20.300000,39.681499,20.300000,100.000000,20.300000,98.935113,20.300000,100.000000,20.300000,100.000000,20.300000,98.201670,
20.500000,39.434025,20.500000,100.000000,20.500000,98.851671,20.500000,100.000000,20.500000,100.000000,20.500000,98.073218,
20.700000,39.177671,20.700000,100.000000,20.700000,98.792069,20.700000,100.000000,20.700000,100.000000,20.700000,97.957611,
20.900000,38.907018,20.900000,100.000000,20.900000,98.736441,20.900000,100.000000,20.900000,100.000000,20.900000,97.861272,
21.100000,38.624517,21.100000,100.000000,21.100000,98.696706,21.100000,100.000000,21.100000,100.000000,21.100000,97.848426,
21.300000,38.337073,21.300000,100.000000,21.300000,98.521874,21.300000,100.000000,21.300000,100.000000,21.300000,97.848426,
21.500000,38.037527,21.500000,100.000000,21.500000,98.235785,21.500000,100.000000,21.500000,100.000000,21.500000,97.848426,
21.700000,37.728606,21.700000,100.000000,21.700000,98.045059,21.700000,100.000000,21.700000,100.000000,21.700000,97.816313,
21.900000,37.410347,21.900000,100.000000,21.900000,97.894068,21.900000,100.000000,21.900000,100.000000,21.900000,97.797046,
22.100000,37.071526,22.100000,100.000000,22.100000,97.774864,22.100000,100.000000,22.100000,100.000000,22.100000,97.797046,
22.300000,36.719577,22.300000,100.000000,22.300000,97.611952,22.300000,100.000000,22.300000,100.000000,22.300000,97.797046,
22.500000,36.344082,22.500000,100.000000,22.500000,97.242421,22.500000,100.000000,22.500000,100.000000,22.500000,97.797046,
22.700000,35.931473,22.700000,100.000000,22.700000,96.880836,22.700000,100.000000,22.700000,100.000000,22.700000,97.797046,
22.900000,35.498174,22.900000,100.000000,22.900000,96.400048,22.900000,100.000000,22.900000,100.000000,22.900000,97.777778,
23.100000,35.015457,23.100000,100.000000,23.100000,95.867604,23.100000,100.000000,23.100000,100.000000,23.100000,97.732820,
23.300000,34.494473,23.300000,100.000000,23.300000,95.200064,23.300000,100.000000,23.300000,100.000000,23.300000,97.732820,
23.500000,33.947617,23.500000,100.000000,23.500000,94.286168,23.500000,100.000000,23.500000,100.000000,23.500000,97.707129,
23.700000,33.350648,23.700000,100.000000,23.700000,93.030556,23.700000,100.000000,23.700000,100.000000,23.700000,97.687861,
23.900000,32.683699,23.900000,100.000000,23.900000,91.139190,23.900000,100.000000,23.900000,100.000000,23.900000,97.655748,
24.100000,31.976542,24.100000,100.000000,24.100000,88.079628,24.100000,100.000000,24.100000,100.000000,24.100000,97.623635,
24.300000,31.194920,24.300000,100.000000,24.300000,83.470418,24.300000,100.000000,24.300000,100.000000,24.300000,97.617213,
24.500000,30.372595,24.500000,100.000000,24.500000,76.775142,24.500000,99.820411,24.500000,100.000000,24.500000,97.604367,
24.700000,29.472234,24.700000,100.000000,24.700000,67.664004,24.700000,97.716093,24.700000,100.000000,24.700000,97.559409,
24.900000,28.519178,24.900000,100.000000,24.900000,56.411173,24.900000,92.019989,24.900000,100.000000,24.900000,97.527296,
25.100000,27.492242,25.100000,100.000000,25.100000,43.843128,25.100000,83.184977,25.100000,100.000000,25.100000,97.482338,
25.300000,26.367624,25.300000,100.000000,25.300000,31.422100,25.300000,71.742016,25.300000,100.000000,25.300000,97.424534,
25.500000,25.019189,25.500000,100.000000,25.500000,19.779870,25.500000,57.714531,25.500000,100.000000,25.500000,97.347463,
25.700000,23.506021,25.700000,100.000000,25.700000,13.299162,25.700000,41.715468,25.700000,100.000000,25.700000,97.257547,
25.900000,21.906980,25.900000,100.000000,25.900000,11.089919,25.900000,24.826267,25.900000,100.000000,25.900000,97.193320,
26.100000,20.375173,26.100000,100.000000,26.100000,9.496563,26.100000,16.018584,26.100000,100.000000,26.100000,97.129094,
26.300000,18.991747,26.300000,100.000000,26.300000,8.217110,26.300000,13.379402,26.300000,100.000000,26.300000,97.077714,
26.500000,17.889156,26.500000,100.000000,26.500000,7.160170,26.500000,11.521043,26.500000,100.000000,26.500000,97.032755,
26.700000,17.114143,26.700000,100.000000,26.700000,6.349585,26.700000,10.092137,26.700000,100.000000,26.700000,97.019910,
26.900000,16.826992,26.900000,100.000000,26.900000,5.638336,26.900000,8.838916,26.900000,100.000000,26.900000,96.994220,
27.100000,16.623828,27.100000,100.000000,27.100000,5.010530,27.100000,7.890216,27.100000,100.000000,27.100000,96.968529,
27.300000,16.440511,27.300000,100.000000,27.300000,4.581396,27.300000,7.019599,27.300000,100.000000,27.300000,96.807964,
27.500000,16.284769,27.500000,100.000000,27.500000,4.076767,27.500000,6.332474,27.500000,100.000000,27.500000,96.396917,
27.700000,16.143949,27.700000,100.000000,27.700000,3.679421,27.700000,5.618021,27.700000,100.000000,27.700000,96.107900,
27.900000,15.996593,27.900000,100.000000,27.900000,3.369492,27.900000,5.005075,27.900000,100.000000,27.900000,95.234425,
28.100000,15.873204,28.100000,100.000000,28.100000,2.984066,28.100000,4.634184,28.100000,100.000000,28.100000,94.720617,
28.300000,15.762833,28.300000,100.000000,28.300000,2.701951,28.300000,4.224252,28.300000,100.000000,28.300000,94.007707,
28.500000,15.657827,28.500000,100.000000,28.500000,2.602615,28.500000,3.939252,28.500000,100.000000,28.500000,92.973667,
28.700000,15.555366,28.700000,100.000000,28.700000,2.336393,28.700000,3.603498,28.700000,100.000000,28.700000,92.498394,
28.900000,15.450927,28.900000,100.000000,28.900000,2.046331,28.900000,3.353635,28.900000,100.000000,28.900000,92.029544,
29.100000,15.355607,29.100000,100.000000,29.100000,1.883419,29.100000,3.131100,29.100000,100.000000,29.100000,90.719332,
29.300000,15.271474,29.300000,100.000000,29.300000,1.748321,29.300000,2.826579,29.300000,100.000000,29.300000,89.910083,
29.500000,15.189355,29.500000,100.000000,29.500000,1.585409,29.500000,2.549387,29.500000,100.000000,29.500000,89.415543,
29.700000,15.107255,29.700000,100.000000,29.700000,1.482100,29.700000,2.299524,29.700000,100.000000,29.700000,88.978805,
29.900000,15.022298,29.900000,100.000000,29.900000,1.386737,29.900000,2.119934,29.900000,100.000000,29.900000,88.175979,
30.100000,14.940966,30.100000,100.000000,30.100000,1.176143,30.100000,1.959866,30.100000,100.000000,30.100000,87.167630,
30.300000,14.867654,30.300000,100.000000,30.300000,1.017205,30.300000,1.854455,30.300000,100.000000,30.300000,86.551060,
30.500000,14.789819,30.500000,100.000000,30.500000,0.997338,30.500000,1.799797,30.500000,100.000000,30.500000,85.838150,
30.700000,14.712864,30.700000,100.000000,30.700000,0.854293,30.700000,1.706098,30.700000,100.000000,30.700000,85.228003,
30.900000,14.646052,30.900000,100.000000,30.900000,0.786745,30.900000,1.592879,30.900000,100.000000,30.900000,84.804110,
31.100000,14.579642,31.100000,100.000000,31.100000,0.683435,31.100000,1.471851,31.100000,100.000000,31.100000,84.393064,
31.300000,14.509315,31.300000,100.000000,31.300000,0.683435,31.300000,1.346920,31.300000,100.000000,31.300000,83.667309,
31.500000,14.435527,31.500000,100.000000,31.500000,0.548337,31.500000,1.206372,31.500000,100.000000,31.500000,82.825947,
