BODY_DvhArray Dose (Gy),BODY_DvhArray Value (% of 10696.600 cc),Bladder_DvhArray Dose (Gy),Bladder_DvhArray Value (% of 117.477 cc),Femoral Head Lt_DvhArray Dose (Gy),Femoral Head Lt_DvhArray Value (% of 49.418 cc),Femoral Head RT_DvhArray Dose (Gy),Femoral Head RT_DvhArray Value (% of 50.305 cc),PTV_DvhArray Dose (Gy),PTV_DvhArray Value (% of 49.023 cc),Rectum_DvhArray Dose (Gy),Rectum_DvhArray Value (% of 30.754 cc),
0.000000,100.000000,0.000000,100.000000,0.000000,100.000000,0.000000,100.000000,0.000000,100.000000,0.000000,100.000000,
0.100000,100.000000,0.100000,100.000000,0.100000,100.000000,0.100000,100.000000,0.100000,100.000000,0.100000,100.000000,
0.300000,100.000000,0.300000,100.000000,0.300000,100.000000,0.300000,100.000000,0.300000,100.000000,0.300000,100.000000,
0.500000,99.762537,0.500000,100.000000,0.500000,100.000000,0.500000,100.000000,0.500000,100.000000,0.500000,100.000000,
0.700000,97.531722,0.700000,100.000000,0.700000,100.000000,0.700000,100.000000,0.700000,100.000000,0.700000,100.000000,
0.900000,93.158594,0.900000,100.000000,0.900000,100.000000,0.900000,100.000000,0.900000,100.000000,0.900000,100.000000,
1.100000,88.098860,1.100000,100.000000,1.100000,100.000000,1.100000,100.000000,1.100000,100.000000,1.100000,100.000000,
1.300000,83.000399,1.300000,100.000000,1.300000,100.000000,1.300000,100.000000,1.300000,100.000000,1.300000,100.000000,
1.500000,78.595682,1.500000,100.000000,1.500000,100.000000,1.500000,100.000000,1.500000,100.000000,1.500000,100.000000,
1.700000,75.190737,1.700000,100.000000,1.700000,100.000000,1.700000,100.000000,1.700000,100.000000,1.700000,100.000000,
1.900000,72.522391,1.900000,100.000000,1.900000,100.000000,1.900000,100.000000,1.900000,100.000000,1.900000,100.000000,
2.100000,70.403652,2.100000,100.000000,2.100000,100.000000,2.100000,100.000000,2.100000,100.000000,2.100000,100.000000,
2.300000,68.706009,2.300000,100.000000,2.300000,100.000000,2.300000,100.000000,2.300000,100.000000,2.300000,100.000000,
2.500000,67.305701,2.500000,100.000000,2.500000,100.000000,2.500000,100.000000,2.500000,100.000000,2.500000,100.000000,
2.700000,66.144699,2.700000,100.000000,2.700000,100.000000,2.700000,100.000000,2.700000,100.000000,2.700000,100.000000,
2.900000,65.146827,2.900000,100.000000,2.900000,100.000000,2.900000,100.000000,2.900000,100.000000,2.900000,100.000000,
3.100000,64.292546,3.100000,100.000000,3.100000,100.000000,3.100000,100.000000,3.100000,100.000000,3.100000,100.000000,
3.300000,63.548113,3.300000,100.000000,3.300000,100.000000,3.300000,100.000000,3.300000,100.000000,3.300000,100.000000,
3.500000,62.896492,3.500000,100.000000,3.500000,100.000000,3.500000,100.000000,3.500000,100.000000,3.500000,100.000000,
3.700000,62.270763,3.700000,100.000000,3.700000,100.000000,3.700000,100.000000,3.700000,100.000000,3.700000,100.000000,
3.900000,61.713160,3.900000,100.000000,3.900000,100.000000,3.900000,100.000000,3.900000,100.000000,3.900000,100.000000,
4.100000,61.194102,4.100000,100.000000,4.100000,100.000000,4.100000,100.000000,4.100000,100.000000,4.100000,100.000000,
4.300000,60.717862,4.300000,100.000000,4.300000,100.000000,4.300000,100.000000,4.300000,100.000000,4.300000,100.000000,
4.500000,60.235962,4.500000,100.000000,4.500000,100.000000,4.500000,100.000000,4.500000,100.000000,4.500000,100.000000,
4.700000,59.783313,4.700000,100.000000,4.700000,100.000000,4.700000,100.000000,4.700000,100.000000,4.700000,100.000000,
4.900000,59.298436,4.900000,100.000000,4.900000,100.000000,4.900000,100.000000,4.900000,100.000000,4.900000,100.000000,
5.100000,58.855228,5.100000,100.000000,5.100000,100.000000,5.100000,100.000000,5.100000,100.000000,5.100000,100.000000,
5.300000,58.420692,5.300000,100.000000,5.300000,100.000000,5.300000,100.000000,5.300000,100.000000,5.300000,100.000000,
5.500000,57.952395,5.500000,100.000000,5.500000,100.000000,5.500000,100.000000,5.500000,100.000000,5.500000,100.000000,
5.700000,57.459137,5.700000,100.000000,5.700000,100.000000,5.700000,100.000000,5.700000,100.000000,5.700000,100.000000,
5.900000,56.963068,5.900000,100.000000,5.900000,100.000000,5.900000,100.000000,5.900000,100.000000,5.900000,100.000000,
6.100000,56.512008,6.100000,100.000000,6.100000,100.000000,6.100000,100.000000,6.100000,100.000000,6.100000,100.000000,
6.300000,56.085342,6.300000,100.000000,6.300000,100.000000,6.300000,100.000000,6.300000,100.000000,6.300000,100.000000,
6.500000,55.660246,6.500000,100.000000,6.500000,100.000000,6.500000,100.000000,6.500000,100.000000,6.500000,100.000000,
6.700000,55.214828,6.700000,100.000000,6.700000,100.000000,6.700000,100.000000,6.700000,100.000000,6.700000,100.000000,
6.900000,54.767219,6.900000,100.000000,6.900000,100.000000,6.900000,100.000000,6.900000,100.000000,6.900000,100.000000,
7.100000,54.348569,7.100000,100.000000,7.100000,100.000000,7.100000,100.000000,7.100000,100.000000,7.100000,100.000000,
7.300000,53.945604,7.300000,100.000000,7.300000,100.000000,7.300000,100.000000,7.300000,100.000000,7.300000,100.000000,
7.500000,53.551915,7.500000,100.000000,7.500000,100.000000,7.500000,100.000000,7.500000,100.000000,7.500000,100.000000,
7.700000,53.163648,7.700000,100.000000,7.700000,100.000000,7.700000,100.000000,7.700000,100.000000,7.700000,100.000000,
7.900000,52.789186,7.900000,100.000000,7.900000,100.000000,7.900000,100.000000,7.900000,100.000000,7.900000,100.000000,
8.100000,52.427596,8.100000,100.000000,8.100000,100.000000,8.100000,100.000000,8.100000,100.000000,8.100000,100.000000,
8.300000,52.076962,8.300000,100.000000,8.300000,100.000000,8.300000,100.000000,8.300000,100.000000,8.300000,100.000000,
8.500000,51.728903,8.500000,100.000000,8.500000,100.000000,8.500000,100.000000,8.500000,100.000000,8.500000,100.000000,
8.700000,51.393771,8.700000,100.000000,8.700000,100.000000,8.700000,100.000000,8.700000,100.000000,8.700000,100.000000,
8.900000,51.079419,8.900000,100.000000,8.900000,100.000000,8.900000,100.000000,8.900000,100.000000,8.900000,100.000000,
9.100000,50.787178,9.100000,100.000000,9.100000,100.000000,9.100000,100.000000,9.100000,100.000000,9.100000,100.000000,
9.300000,50.508084,9.300000,100.000000,9.300000,100.000000,9.300000,100.000000,9.300000,100.000000,9.300000,100.000000,
9.500000,50.241954,9.500000,100.000000,9.500000,100.000000,9.500000,100.000000,9.500000,100.000000,9.500000,100.000000,
9.700000,49.989227,9.700000,100.000000,9.700000,100.000000,9.700000,100.000000,9.700000,100.000000,9.700000,100.000000,
9.900000,49.747364,9.900000,100.000000,9.900000,100.000000,9.900000,100.000000,9.900000,100.000000,9.900000,100.000000,
10.100000,49.511307,10.100000,100.000000,10.100000,100.000000,10.100000,100.000000,10.100000,100.000000,10.100000,100.000000,
10.300000,49.282007,10.300000,100.000000,10.300000,100.000000,10.300000,100.000000,10.300000,100.000000,10.300000,100.000000,
10.500000,49.055061,10.500000,100.000000,10.500000,100.000000,10.500000,100.000000,10.500000,100.000000,10.500000,100.000000,
10.700000,48.830179,10.700000,100.000000,10.700000,100.000000,10.700000,100.000000,10.700000,100.000000,10.700000,100.000000,
10.900000,48.606886,10.900000,100.000000,10.900000,100.000000,10.900000,100.000000,10.900000,100.000000,10.900000,100.000000,
11.100000,48.398839,11.100000,100.000000,11.100000,100.000000,11.100000,100.000000,11.100000,100.000000,11.100000,99.968246,
11.300000,48.194499,11.300000,100.000000,11.300000,100.000000,11.300000,100.000000,11.300000,100.000000,11.300000,99.790423,
11.500000,47.999617,11.500000,100.000000,11.500000,100.000000,11.500000,100.000000,11.500000,100.000000,11.500000,99.498285,
11.700000,47.802325,11.700000,100.000000,11.700000,100.000000,11.700000,100.000000,11.700000,100.000000,11.700000,99.301410,
11.900000,47.610420,11.900000,100.000000,11.900000,100.000000,11.900000,100.000000,11.900000,100.000000,11.900000,99.212498,
12.100000,47.419774,12.100000,100.000000,12.100000,100.000000,12.100000,100.000000,12.100000,100.000000,12.100000,99.212498,
12.300000,47.229183,12.300000,100.000000,12.300000,100.000000,12.300000,100.000000,12.300000,100.000000,12.300000,99.212498,
12.500000,47.044819,12.500000,100.000000,12.500000,100.000000,12.500000,100.000000,12.500000,100.000000,12.500000,99.212498,
12.700000,46.864745,12.700000,100.000000,12.700000,100.000000,12.700000,100.000000,12.700000,100.000000,12.700000,99.212498,
12.900000,46.687246,12.900000,100.000000,12.900000,100.000000,12.900000,100.000000,12.900000,100.000000,12.900000,99.212498,
13.100000,46.509784,13.100000,100.000000,13.100000,100.000000,13.100000,100.000000,13.100000,100.000000,13.100000,99.212498,
13.300000,46.333800,13.300000,100.000000,13.300000,100.000000,13.300000,100.000000,13.300000,100.000000,13.300000,99.212498,
13.500000,46.157726,13.500000,100.000000,13.500000,100.000000,13.500000,100.000000,13.500000,100.000000,13.500000,99.212498,
13.700000,45.983641,13.700000,100.000000,13.700000,100.000000,13.700000,100.000000,13.700000,100.000000,13.700000,99.212498,
13.900000,45.805430,13.900000,100.000000,13.900000,100.000000,13.900000,100.000000,13.900000,100.000000,13.900000,99.193446,
14.100000,45.626982,14.100000,100.000000,14.100000,100.000000,14.100000,100.000000,14.100000,100.000000,14.100000,99.193446,
14.300000,45.446013,14.300000,100.000000,14.300000,100.000000,14.300000,100.000000,14.300000,100.000000,14.300000,99.180744,
14.500000,45.260170,14.500000,100.000000,14.500000,100.000000,14.500000,100.000000,14.500000,100.000000,14.500000,99.155341,
14.700000,45.071058,14.700000,100.000000,14.700000,100.000000,14.700000,100.000000,14.700000,100.000000,14.700000,99.129938,
14.900000,44.880065,14.900000,100.000000,14.900000,100.000000,14.900000,100.000000,14.900000,100.000000,14.900000,99.104534,
15.100000,44.694094,15.100000,100.000000,15.100000,100.000000,15.100000,100.000000,15.100000,100.000000,15.100000,99.053728,
15.300000,44.510332,15.300000,100.000000,15.300000,100.000000,15.300000,100.000000,15.300000,100.000000,15.300000,98.882256,
15.500000,44.331537,15.500000,100.000000,15.500000,100.000000,15.500000,100.000000,15.500000,100.000000,15.500000,98.640925,
15.700000,44.152121,15.700000,100.000000,15.700000,99.992095,15.700000,100.000000,15.700000,100.000000,15.700000,98.424997,
15.900000,43.970422,15.900000,100.000000,15.900000,99.976286,15.900000,100.000000,15.900000,100.000000,15.900000,98.424997,
16.100000,43.791389,16.100000,100.000000,16.100000,99.964430,16.100000,100.000000,16.100000,100.000000,16.100000,98.424997,
16.300000,43.610658,16.300000,100.000000,16.300000,99.940716,16.300000,100.000000,16.300000,100.000000,16.300000,98.424997,
16.500000,43.430585,16.500000,100.000000,16.500000,99.920955,16.500000,100.000000,16.500000,100.000000,16.500000,98.424997,
16.700000,43.250347,16.700000,100.000000,16.700000,99.901194,16.700000,100.000000,16.700000,100.000000,16.700000,98.424997,
16.900000,43.069580,16.900000,100.000000,16.900000,99.889337,16.900000,100.000000,16.900000,100.000000,16.900000,98.393243,
17.100000,42.886603,17.100000,100.000000,17.100000,99.881432,17.100000,100.000000,17.100000,100.000000,17.100000,98.393243,
17.300000,42.701253,17.300000,100.000000,17.300000,99.845862,17.300000,100.000000,17.300000,100.000000,17.300000,98.393243,
17.500000,42.515373,17.500000,100.000000,17.500000,99.794483,17.500000,100.000000,17.500000,100.000000,17.500000,98.393243,
17.700000,42.325293,17.700000,100.000000,17.700000,99.743103,17.700000,100.000000,17.700000,100.000000,17.700000,98.393243,
17.900000,42.131214,17.900000,100.000000,17.900000,99.699628,17.900000,100.000000,17.900000,100.000000,17.900000,98.386892,
18.100000,41.940313,18.100000,100.000000,18.100000,99.648249,18.100000,100.000000,18.100000,100.000000,18.100000,98.342436,
18.300000,41.747586,18.300000,100.000000,18.300000,99.612679,18.300000,100.000000,18.300000,100.000000,18.300000,98.342436,
18.500000,41.548139,18.500000,100.000000,18.500000,99.577109,18.500000,100.000000,18.500000,100.000000,18.500000,98.342436,
18.700000,41.344237,18.700000,100.000000,18.700000,99.537586,18.700000,100.000000,18.700000,100.000000,18.700000,98.342436,
18.900000,41.138838,18.900000,100.000000,18.900000,99.505968,18.900000,100.000000,18.900000,100.000000,18.900000,98.278928,
19.100000,40.931869,19.100000,100.000000,19.100000,99.470398,19.100000,100.000000,19.100000,100.000000,19.100000,98.278928,
19.300000,40.719531,19.300000,100.000000,19.300000,99.446684,19.300000,100.000000,19.300000,100.000000,19.300000,98.278928,
19.500000,40.501368,19.500000,100.000000,19.500000,99.383448,19.500000,100.000000,19.500000,100.000000,19.500000,98.209069,
19.700000,40.276450,19.700000,100.000000,19.700000,99.253023,19.700000,100.000000,19.700000,100.000000,19.700000,98.209069,
19.900000,40.047076,19.900000,100.000000,19.900000,99.102838,19.900000,100.000000,19.900000,100.000000,19.900000,98.132859,
20.100000,39.814471,20.100000,100.000000,20.100000,99.007984,20.100000,100.000000,20.100000,100.000000,20.100000,98.063000,
20.300000,39.572352,20.300000,100.000000,20.300000,98.928938,20.300000,100.000000,20.300000,100.000000,20.300000,97.967738,
20.500000,39.325559,20.500000,100.000000,20.500000,98.845941,20.500000,100.000000,20.500000,100.000000,20.500000,97.840721,
20.700000,39.069910,20.700000,100.000000,20.700000,98.794562,20.700000,100.000000,20.700000,100.000000,20.700000,97.720056,
20.900000,38.800000,20.900000,100.000000,20.900000,98.735278,20.900000,100.000000,20.900000,100.000000,20.900000,97.624794,
21.100000,38.518277,21.100000,100.000000,21.100000,98.691803,21.100000,100.000000,21.100000,100.000000,21.100000,97.612092,
21.300000,38.231624,21.300000,100.000000,21.300000,98.517904,21.300000,100.000000,21.300000,100.000000,21.300000,97.612092,
21.500000,37.932901,21.500000,100.000000,21.500000,98.225437,21.500000,100.000000,21.500000,100.000000,21.500000,97.612092,
21.700000,37.624830,21.700000,100.000000,21.700000,98.035728,21.700000,100.000000,21.700000,100.000000,21.700000,97.580338,
21.900000,37.307446,21.900000,100.000000,21.900000,97.893447,21.900000,100.000000,21.900000,100.000000,21.900000,97.561285,
22.100000,36.969557,22.100000,100.000000,22.100000,97.770927,22.100000,100.000000,22.100000,100.000000,22.100000,97.561285,
22.300000,36.618576,22.300000,100.000000,22.300000,97.604932,22.300000,100.000000,22.300000,100.000000,22.300000,97.561285,
22.500000,36.244114,22.500000,100.000000,22.500000,97.249229,22.500000,100.000000,22.500000,100.000000,22.500000,97.561285,
22.700000,35.832640,22.700000,100.000000,22.700000,96.889574,22.700000,100.000000,22.700000,100.000000,22.700000,97.561285,
22.900000,35.400533,22.900000,100.000000,22.900000,96.403446,22.900000,100.000000,22.900000,100.000000,22.900000,97.542233,
23.100000,34.919144,23.100000,100.000000,23.100000,95.869892,23.100000,100.000000,23.100000,100.000000,23.100000,97.497777,
23.300000,34.399593,23.300000,100.000000,23.300000,95.198008,23.300000,100.000000,23.300000,100.000000,23.300000,97.497777,
23.500000,33.854242,23.500000,100.000000,23.500000,94.277132,23.500000,100.000000,23.500000,100.000000,23.500000,97.472374,
23.700000,33.258914,23.700000,100.000000,23.700000,93.036124,23.700000,100.000000,23.700000,100.000000,23.700000,97.453321,
23.900000,32.593800,23.900000,100.000000,23.900000,91.119279,23.900000,100.000000,23.900000,100.000000,23.900000,97.421567,
24.100000,31.888588,24.100000,100.000000,24.100000,88.044423,24.100000,100.000000,24.100000,100.000000,24.100000,97.389813,
24.300000,31.109116,24.300000,100.000000,24.300000,83.440044,24.300000,100.000000,24.300000,100.000000,24.300000,97.383462,
24.500000,30.289053,24.500000,100.000000,24.500000,76.713303,24.500000,99.798105,24.500000,100.000000,24.500000,97.370761,
24.700000,29.391168,24.700000,100.000000,24.700000,67.627065,24.700000,97.616089,24.700000,100.000000,24.700000,97.319954,
24.900000,28.440733,24.900000,100.000000,24.900000,56.374990,24.900000,91.904799,24.900000,100.000000,24.900000,97.281849,
25.100000,27.416622,25.100000,100.000000,25.100000,43.874002,25.100000,83.161205,25.100000,100.000000,25.100000,97.237394,
25.300000,26.295098,25.300000,100.000000,25.300000,31.459964,25.300000,71.754154,25.300000,100.000000,25.300000,97.180236,
25.500000,24.950371,25.500000,100.000000,25.500000,19.824520,25.500000,57.699177,25.500000,100.000000,25.500000,97.104026,
25.700000,23.441365,25.700000,100.000000,25.700000,13.307248,25.700000,41.745613,25.700000,100.000000,25.700000,97.015115,
25.900000,21.846723,25.900000,100.000000,25.900000,11.093985,25.900000,24.895170,25.900000,100.000000,25.900000,96.951607,
26.100000,20.319129,26.100000,100.000000,26.100000,9.485416,26.100000,16.038981,26.100000,100.000000,26.100000,96.888099,
26.300000,18.939509,26.300000,100.000000,26.300000,8.208837,26.300000,13.391055,26.300000,100.000000,26.300000,96.837292,
26.500000,17.839950,26.500000,100.000000,26.500000,7.193107,26.500000,11.558472,26.500000,100.000000,26.500000,96.786485,
26.700000,17.067069,26.700000,100.000000,26.700000,6.363133,26.700000,10.114148,26.700000,100.000000,26.700000,96.773784,
26.900000,16.780708,26.900000,100.000000,26.900000,5.647775,26.900000,8.883367,26.900000,100.000000,26.900000,96.748381,
27.100000,16.578103,27.100000,100.000000,27.100000,5.058889,27.100000,7.932132,27.100000,100.000000,27.100000,96.722977,
27.300000,16.395290,27.300000,100.000000,27.300000,4.612284,27.300000,7.035254,27.300000,100.000000,27.300000,96.538804,
27.500000,16.239977,27.500000,100.000000,27.500000,4.098490,27.500000,6.355801,27.500000,100.000000,27.500000,96.075194,
27.700000,16.099544,27.700000,100.000000,27.700000,3.703265,27.700000,5.637521,27.700000,100.000000,27.700000,95.744951,
27.900000,15.952593,27.900000,100.000000,27.900000,3.406845,27.900000,5.035720,27.900000,100.000000,27.900000,94.805030,
28.100000,15.829543,28.100000,100.000000,28.100000,3.027429,28.100000,4.639696,28.100000,100.000000,28.100000,94.309666,
28.300000,15.719476,28.300000,100.000000,28.300000,2.738914,28.300000,4.239789,28.300000,100.000000,28.300000,93.579322,
28.500000,15.614759,28.500000,100.000000,28.500000,2.636155,28.500000,3.964125,28.500000,100.000000,28.500000,92.563191,
28.700000,15.512580,28.700000,100.000000,28.700000,2.371354,28.700000,3.637987,28.700000,100.000000,28.700000,92.086879,
28.900000,15.408428,28.900000,100.000000,28.900000,2.086792,28.900000,3.373971,28.900000,100.000000,28.900000,91.578814,
29.100000,15.313370,29.100000,100.000000,29.100000,1.932654,29.100000,3.152663,29.100000,100.000000,29.100000,90.289597,
29.300000,15.229469,29.300000,100.000000,29.300000,1.794325,29.300000,2.857587,29.300000,100.000000,29.300000,89.502096,
29.500000,15.147576,29.500000,100.000000,29.500000,1.624378,29.500000,2.597453,29.500000,100.000000,29.500000,88.987679,
29.700000,15.065701,29.700000,100.000000,29.700000,1.517667,29.700000,2.356732,29.700000,100.000000,29.700000,88.536771,
29.900000,14.980977,29.900000,100.000000,29.900000,1.399099,29.900000,2.162603,29.900000,100.000000,29.900000,87.749270,
30.100000,14.899869,30.100000,99.995012,30.100000,1.197534,30.100000,1.995651,30.100000,100.000000,30.100000,86.764893,
30.300000,14.826759,30.300000,99.990025,30.300000,1.043396,30.300000,1.883056,30.300000,100.000000,30.300000,86.155214,
30.500000,14.749139,30.500000,99.990025,30.500000,1.027587,30.500000,1.828700,30.500000,100.000000,30.500000,85.412168,
30.700000,14.672395,30.700000,99.990025,30.700000,0.901115,30.700000,1.735518,30.700000,100.000000,30.700000,84.821542,
30.900000,14.605766,30.900000,99.990025,30.900000,0.822069,30.900000,1.615158,30.900000,100.000000,30.900000,84.408739,
31.100000,14.539540,31.100000,99.990025,31.100000,0.723263,31.100000,1.502563,31.100000,100.000000,31.100000,84.034040,
31.300000,14.469406,31.300000,99.990025,31.300000,0.723263,31.300000,1.370554,31.300000,100.000000,31.300000,83.303696,
